energy,total,Mg_s,Mg_p,O_s,O_p
8.0,0.00011374678825703326,2.218123770568143e-05,3.5053574042218915e-05,8.84318555306378e-06,4.7668790956069126e-05
7.99,0.0001257073901004738,2.4397926123775105e-05,3.8872361593417944e-05,9.819703238071439e-06,5.2617399145209324e-05
7.98,0.00013790795510791403,2.6633649573745498e-05,4.2795213812137536e-05,1.0827703806272232e-05,5.765138791575876e-05
7.970000000000001,0.0001502478380012257,2.8867215489984153e-05,4.6792170587877044e-05,1.186068692053418e-05,6.272776500283033e-05
7.960000000000001,0.00016263206566492685,3.107906388464269e-05,5.083431597514893e-05,1.291247556170247e-05,6.780621024343276e-05
7.950000000000001,0.00017497474928801737,3.325196968228444e-05,5.4894803758529785e-05,1.3977451603516461e-05,7.285052424368669e-05
7.940000000000001,0.0001872017569432759,3.53715736899229e-05,5.8949691299887574e-05,1.505074008818697e-05,7.782975186527845e-05
7.9300000000000015,0.00019925251324494868,3.742671660999666e-05,6.297853899986047e-05,1.612833264849973e-05,8.271892498659181e-05
7.920000000000002,0.00021108087252005191,3.940956809707789e-05,6.696475464734715e-05,1.720714620750852e-05,8.749940356811833e-05
7.910000000000002,0.00022265509096857955,4.13155599767713e-05,7.089568413593454e-05,1.828501873979969e-05,9.215882811607405e-05
7.900000000000002,0.00023395699329463226,4.314314761318322e-05,7.476247014507299e-05,1.936064890134132e-05,9.66907266350347e-05
7.890000000000002,0.00024498048373585075,4.489343466339733e-05,7.855971651475461e-05,2.0433490253347984e-05,0.00010109384230435085
7.880000000000003,0.00025572958621755367,4.65697032779513e-05,8.228500693660307e-05,2.1503613318353692e-05,0.0001053712626846456
7.870000000000003,0.00026621621214780437,4.81768939813517e-05,8.593833173754015e-05,2.257154970780246e-05,0.00010952943672111008
7.860000000000003,0.00027645784837465907,4.972107734463529e-05,8.952147616194192e-05,2.3638132130625363e-05,0.00011357716273745651
7.850000000000003,0.00028647533537707524,5.120895394034538e-05,9.303741848183733e-05,2.4704342465355397e-05,0.0001175246204895371
7.840000000000003,0.00029629087158045483,5.264741103409263e-05,9.648977771106133e-05,2.577117759106772e-05,0.00012138250524423315
7.830000000000004,0.00030592633909223843,5.4043155210178495e-05,9.988234009094394e-05,2.683953970709736e-05,0.00012516130408401862
7.820000000000004,0.0003154020042905213,5.540243078820652e-05,0.00010321868225891307,2.7910154801261293e-05,0.00012887073644214037
7.810000000000004,0.0003247356079405483,5.6730825410946055e-05,0.00010650189832702247,2.8983520071015347e-05,0.00013251936413156442
7.800000000000004,0.00033394182705941686,5.803315724693644e-05,0.00010973442890314762,3.0059878698902033e-05,0.00013611436221043073
7.7900000000000045,0.0003430320664640685,5.93134332277776e-05,0.00011291798294912799,3.113921857500921e-05,0.00013966143171215373
7.780000000000005,0.0003520145224037949,6.057486471613807e-05,0.00011605353850770306,3.2221290394710315e-05,0.0001431648287852435
7.770000000000005,0.00036089445340528234,6.181992582625767e-05,0.00011914140567033393,3.330564001122791e-05,0.00014662748189746286
7.760000000000005,0.00036967459318802784,6.305043997856041e-05,0.00012218133441314636,3.439164990412863e-05,0.00015005116889219244
7.750000000000005,0.00037835564555146816,6.426768175908187e-05,0.00012517265068453625,3.5478585017945154e-05,0.0001534367280899049
7.7400000000000055,0.000386936809680717,6.547248334832703e-05,0.0001281144059283201,3.6565638899595406e-05,0.00015678428150447447
7.730000000000006,0.00039541629467696306,6.666533729377119e-05,0.0001310055276363485,3.7651976895305876e-05,0.0001600934528515375
7.720000000000006,0.000403791792889458,6.784648990771069e-05,0.00013384496117719436,3.873677405179994e-05,0.000163363567752753
7.710000000000006,0.00041206089177344633,6.901602184835451e-05,0.000136631795765549,3.9819246221497854e-05,0.00016659382793804498
7.700000000000006,0.0004202214128629535,7.017391434743564e-05,0.00013936536983615944,4.089867364194702e-05,0.00016978345503741143
7.690000000000007,0.0004282716737027543,7.132010102190716e-05,0.00014204535316524421,4.1974416913404755e-05,0.00017293180260219814
7.680000000000007,0.00043621067416441437,7.245450625200876e-05,0.00014467180480475986,4.304592582177975e-05,0.000176038437285866
7.670000000000007,0.0004440382125891352,7.357707176679309e-05,0.00014724520726800005,4.411274184662807e-05,0.00017910319170771398
7.660000000000007,0.000451754939867382,7.468777341816274e-05,0.00014976647846073584,4.517449546346091e-05,0.00018212619252502252
7.6500000000000075,0.00045936236113081573,7.578663022063533e-05,0.00015223696363166498,4.623089950830768e-05,0.00018510786777020772
7.640000000000008,0.00046686279543711,7.687370765825149e-05,0.00015465841015952853,4.728173993372185e-05,0.00018804893768560813
7.630000000000008,0.00047425930388073745,7.794911707400489e-05,0.00015703292833568218,4.832686526246798e-05,0.0001909503932085824
7.620000000000008,0.000481555596127614,7.901301270944534e-05,0.00015936294146625364,4.936617595049853e-05,0.00019381346600141645
7.610000000000008,0.0004887559245722071,8.006558768776987e-05,0.00016165112862703683,5.039961471644651e-05,0.0001966395935409539
7.6000000000000085,0.0004958649742433161,8.110706995602323e-05,0.0001639003632732642,5.142715869256113e-05,0.0001994303823214675
7.590000000000009,0.0005028877553090113,8.213771893494133e-05,0.00016611365065137538,5.244881401410735e-05,0.0002021875717085873
7.580000000000009,0.0005098295036117982,8.315782337600724e-05,0.00016829406659924572,5.3464613203908707e-05,0.00020491300043263647
7.570000000000009,0.0005166955931599242,8.416770069806981e-05,0.00017044469987742902,5.447461544006167e-05,0.0002076085771443637
7.560000000000009,0.0005234914629714155,8.516769787218537e-05,0.0001725685996736227,5.547890953272063e-05,0.00021027625589288684
7.55000000000001,0.0005302225591803642,8.615819374452625e-05,0.00017466872939627854,5.647761919519189e-05,0.00021291801684436746
7.54000000000001,0.0005368942919400081,8.713960253493214e-05,0.00017674792735358392,5.747090998962048e-05,0.00021553585206187151
7.53000000000001,0.0005435120054631941,8.811237812521164e-05,0.00017880887443315357,5.845899717085488e-05,0.000218131755733974
7.52000000000001,0.0005500809585905995,8.907701865928267e-05,0.00018085406848506887,5.944215355351456e-05,0.00022070771789273338
7.5100000000000104,0.0005566063126211262,9.003407091929723e-05,0.00018288580479035646,6.0420716493205885e-05,0.00022326572041826657
7.500000000000011,0.0005630931228102131,9.098413392008803e-05,0.00018490616178508802,6.13950931054016e-05,0.0002258077339996355
7.490000000000011,0.0005695463299519263,9.192786117953716e-05,0.0001869169911144413,6.236576294238551e-05,0.0002283357147155624
7.480000000000011,0.0005759707487973723,9.2865961174178e-05,0.0001889199111090011,6.333327750308449e-05,0.00023085159901110866
7.470000000000011,0.000582371050689281,9.379919557501797e-05,0.00019091630289540932,6.429825615176127e-05,0.00023335729606709243
7.4600000000000115,0.0005887517386530334,9.472837497378201e-05,0.00019290730855479993,6.526137825537511e-05,0.0002358546768690763
7.450000000000012,0.0005951171142032137,9.565435194826193e-05,0.00019489383099820421,6.622337159970369e-05,0.00023834555965704385
7.440000000000012,0.0006014712362158411,9.657801146941032e-05,0.00019687653550703226,6.7184997393887e-05,0.00024083169184551146
7.430000000000012,0.0006078178732892999,9.750025881335044e-05,0.00019885585315632456,6.814703240509584e-05,0.00024331472891452895
7.420000000000012,0.000614160451984217,9.842200529915451e-05,0.0002008319865679787,6.91102489643386e-05,0.00024579621115274514
7.410000000000013,0.0006205020041168496,9.934415231870579e-05,0.00020280491860453904,7.007539373846887e-05,0.00024827753945513587
7.400000000000013,0.0006268451168208544,0.00010026757424947735,0.0002047744246924063,7.104316626317176e-05,0.00025075995161579905
7.390000000000013,0.0006331918893483573,0.00010119310093709151,0.00020674008944637678,7.201419827195355e-05,0.00025324450069293537
7.380000000000013,0.0006395439005360149,0.00010212150049613468,0.0002087013281548101,7.298903483585579e-05,0.00025573203704921433
7.370000000000013,0.0006459021905221055,0.00010305346320089614,0.00021065741348562156,7.396811825052761e-05,0.00025822319558506016
7.360000000000014,0.0006522672596954377,0.00010398958722060074,0.0002126075075053481,7.495177547756027e-05,0.00026071838949192857
7.350000000000014,0.0006586390870335368,0.00010493036689662627,0.0002145506987909799,7.594020977445071e-05,0.00026321781157147983
7.340000000000014,0.0006650171690072506,0.00010587618416457804,0.00021648604408531263,7.693349694297554e-05,0.00026572144381438445
7.330000000000014,0.0006714005791607308,0.00010682730359636277,0.00021841261363055836,7.793158640099925e-05,0.0002682290755328104
7.3200000000000145,0.0006777880473906729,0.00010778387138272059,0.00022032953903921963,7.893430705006422e-05,0.0002707403299186685
7.310000000000015,0.0006841780569141804,0.00010874591840263544,0.00022223606234854354,7.994137768250349e-05,0.00027325469848049795
7.300000000000015,0.0006905689559895661,0.0001097133673413188,0.00022413158477118972,8.095242145848468e-05,0.0002757715824185729
7.290000000000015,0.0006969590806859009,0.00011068604363237662,0.0002260157136079159,8.196698379537247e-05,0.000278290339650236
7.280000000000015,0.0007033468844180829,0.00011166368982186744,0.00022788830582737271,8.298455285766658e-05,0.00028081033591117625
7.270000000000016,0.0007097310695929004,0.00011264598279153152,0.0002297495069347105,8.400458172244089e-05,0.0002833309981442174
7.260000000000016,0.0007161107165522045,0.00011363255314405664,0.00023159978392916017,8.502651122774346e-05,0.00028585186825124423
7.250000000000016,0.0007224854050438684,0.00011462300595217436,0.00023343995137098348,8.604979249288352e-05,0.00028837265522782703
7.240000000000016,0.0007288553236819867,0.00011561694201130822,0.0002352711898180599,8.707390813084797e-05,0.00029089328372177065
7.230000000000016,0.0007352213632504669,0.00011661397871604334,0.0002370950561303851,8.809839125291473e-05,0.0002934139371511238
7.220000000000017,0.0007415851902308881,0.00011761376970514988,0.00023891348535860438,8.912284149017209e-05,0.0002959350936769618
7.210000000000017,0.0007479492975677095,0.00011861602248709742,0.00024072878411738894,9.014693742010436e-05,0.00029845755354311886
7.200000000000017,0.000754317030394797,0.00011962051336431832,0.00024254361548977784,9.117044498047508e-05,0.0003009824565602258
7.190000000000017,0.000760692585213295,0.00012062709911399762,0.0002443609756157088,9.219322166736336e-05,0.0003035112888162252
7.1800000000000175,0.0007670809818129789,0.00012163572504805271,0.0002461841621951002,9.321521653792092e-05,0.000306045878031905
7.170000000000018,0.0007734880080524919,0.00012264642925593802,0.00024801673519714475,9.423646625897966e-05,0.0003085883773404294
7.160000000000018,0.000779920138447039,0.00012365934302086614,0.0002498624701309824,9.525708764779659e-05,0.0003111412376473939
7.150000000000018,0.0007863844283460323,0.00012467468758271737,0.0002517253043179797,9.627726732951485e-05,0.0003137071691158204
7.140000000000018,0.0007928883863088638,0.00012569276758956518,0.00025360927673028394,9.72972492774601e-05,0.00031628909271155456
7.1300000000000185,0.0007994398280934359,0.0001267139617257558,0.0002555184621374842,9.831732109957155e-05,0.0003188900831306244
7.120000000000019,0.000806046716444013,0.00012773871112086016,0.0002574569005394392,9.933779998224074e-05,0.0003215133048014729
7.110000000000019,0.0008127169915810744,0.00012876750622557498,0.0002594285231559533,0.00010035901919981209,0.0003241619429997341
7.100000000000019,0.0008194583979276027,0.00012980087288496088,0.0002614370765803099,0.00010138131604525076,0.00032683913241708114
7.090000000000019,0.0008262783131177549,0.0001308393583456346,0.00026348604706098733,0.00010240502193909057,0.0003295478857720423
7.08000000000002,0.0008331835856830759,0.00013188351790307038,0.00026557858722265287,0.00010343045533617464,0.000332291025221178
7.07000000000002,0.0008401803879524636,0.00013293390283116257,0.0002677174478357545,0.00010445791788107457,0.000335071119404472
7.06000000000002,0.0008472740905892676,0.00013399105014320884,0.00026990491745257437,0.00010548769407266469,0.00033789042892081974
7.05000000000002,0.0008544691647814906,0.0001350554746170548,0.0002721427728063055,0.00010652005449578334,0.0003407508628623469
7.0400000000000205,0.0008617691173690824,0.0001361276633834986,0.00027443224278379417,0.0001075552624727148,0.0003436539487290748
7.030000000000021,0.0008691764631224099,0.0001372080732327009,0.00027677398850708723,0.00010859358378828164,0.00034660081759434023
7.020000000000021,0.0008766927369866844,0.00013829713064483713,0.0002791681015824849,0.00010963529895772979,0.00034959220580163265
7.010000000000021,0.0008843185474130152,0.00013939523440498455,0.0002816141219035763,0.00011068071734351253,0.00035262847376094184
7.000000000000021,0.0008920536699705096,0.00014050276052440035,0.00028411107554981605,0.00011173019229188909,0.0003557096416044041
6.9900000000000215,0.0008998971783657923,0.0001416200690667083,0.00028665753234546735,0.0001127841363585692,0.0003588354405950475
6.980000000000022,0.0009078476079010902,0.00014274751237341397,0.00028925168159188994,0.00011384303562946688,0.00036200537830631947
6.970000000000022,0.0009159031444121446,0.00014388544410341822,0.00029189142342804156,0.00011490746212237025,0.00036521881475831463
6.960000000000022,0.0009240618299840044,0.00014503422844991948,0.0002945744722855605,0.000115978083281666,0.0003684750459668584
6.950000000000022,0.0009323217753852238,0.00014619424887853,0.0002972984680625584,0.00011705566765384005,0.0003717733907902953
6.940000000000023,0.0009406813683134803,0.0001473659157447043,0.00030006109001502285,0.00011814108595751971,0.00037511327659623333
6.930000000000023,0.0009491394663055572,0.00014854967219743085,0.0003028601680147308,0.00011923530693752644,0.00037849431915586905
6.920000000000023,0.0009576955635915071,0.00014974599785865623,0.00030569378578770677,0.00012033938761439203,0.000381916392330752
6.910000000000023,0.0009663499222798429,0.00015095540988133873,0.0003085603710447101,0.00012145445780257904,0.000385379683551215
6.9000000000000234,0.0009751036600099418,0.00015217846112864603,0.00031145876803695833,0.00012258169906236897,0.00038888473178196856
6.890000000000024,0.0009839587885102593,0.00015341573537598827,0.00031438828898274656,0.0001237223185587475,0.0003924324455927771
6.880000000000024,0.000992918200220208,0.00015466783960797076,0.0003173487419568065,0.00012487751860927354,0.00039602410004615715
6.870000000000024,0.001001985603095487,0.00015593539365431217,0.00032034043413795867,0.00012604846299321023,0.00039966131231000587
6.860000000000024,0.0010111654067220927,0.00015721901757191246,0.00032336415068250833,0.00012723624134632538,0.0004033459971213466
6.8500000000000245,0.0010204625657049403,0.00015851931732414,0.00032642111083583473,0.00012844183316027439,0.00040708030438469127
6.840000000000025,0.0010298823887728657,0.0001598368694233701,0.00032951290411982345,0.00012966607302491778,0.00041086654220475426
6.830000000000025,0.0010394303239779127,0.00016117220528071913,0.00033264141045630024,0.00013090961878261154,0.00041470708945828166
6.820000000000025,0.0010491117316287315,0.00016252579604193873,0.0003358087088403837,0.0001321729241970769,0.0004186043025493322
6.810000000000025,0.0010589316571033213,0.00016389803867757272,0.00033901697961879833,0.00013345621757413002,0.00042256042123282026
6.800000000000026,0.0010688946154121083,0.00016528924403895974,0.00034226840553812127,0.00013475948751287732,0.0004265774783221501
6.790000000000026,0.0010790043983663613,0.00016669962749301742,0.00034556507651434433,0.0001360824766269578,0.0004306572177320417
6.780000000000026,0.0010892639135441473,0.00016812930261459922,0.00034890890257032375,0.0001374246836759156,0.00043480102468330874
6.770000000000026,0.0010996750620794202,0.0001695782782548204,0.0003523015386448435,0.00013878537411229878,0.00043900987106745766
6.760000000000026,0.0011102386598069482,0.00017104645912823833,0.0003557443240646635,0.00014016359860983773,0.00044328427800420864
6.750000000000027,0.00112095440367244,0.0001725336498832497,0.0003592382384661834,0.00014155821872270983,0.00044762429660029704
6.740000000000027,0.001131820882759699,0.0001740395624506013,0.0003627838749347399,0.00014296793846494508,0.00045202950690941283
6.730000000000027,0.0011428356309745417,0.00017556382631553653,0.0003663814301700167,0.00014439134031825267,0.00045649903417073576
6.720000000000027,0.0011539952165064028,0.00017710600123890214,0.0003700307106469086,0.0001458269239957083,0.00046103158062488377
6.7100000000000275,0.0011652953617677267,0.00017866559186795802,0.00037373115306768,0.00014727314621975309,0.0004656254706123356
6.700000000000028,0.0011767310866431628,0.00018024206363200076,0.0003774818569198361,0.00014872845981879222,0.00047027870627253376
6.690000000000028,0.0011882968675686512,0.00018183485931130424,0.00038128162667191317,0.00015019135060106122,0.0004749890309843724
6.680000000000028,0.0011999868051602307,0.00018344341569728233,0.00038512902104558737,0.00015166037071240055,0.0004797539977049606
6.670000000000028,0.0012117947937398102,0.0001850671798215195,0.00038902240687150414,0.00015313416750387815,0.0004845710395429084
6.660000000000029,0.0012237146870481821,0.00018670562431374614,0.0003929600152320588,0.00015461150729832133,0.000489437540204056
6.650000000000029,0.001235740455567996,0.00018835826154516675,0.00039693999787569756,0.00015609129382152272,0.000494350902325609
6.640000000000029,0.0012478663320747505,0.00019002465631472488,0.0004009604822126904,0.0001575725814239407,0.0004993086121233946
6.630000000000029,0.0012600869431785419,0.0001917044369334552,0.00040501962353469675,0.00015905458353455027,0.0005043082991758396
6.620000000000029,0.001272397425622832,0.00019339730464891012,0.0004091156534107649,0.00016053667703754926,0.0005093477905256078
6.61000000000003,0.0012847935269085817,0.00019510304142250452,0.0004132469234818026,0.0001620184034290789,0.0005144251585751957
6.60000000000003,0.0012972716903851206,0.00019682151612443436,0.00041741194409596733,0.000163499467687001,0.000519538762477718
6.59000000000003,0.0013098291252970455,0.00019855268924275717,0.00042160941740071467,0.000164979735772199,0.0005246872828813746
6.58000000000003,0.0013224638624295096,0.00020029661621650041,0.0004258382646430485,0.0001664592315825526,0.000529869749987408
6.5700000000000305,0.0013351747960014693,0.00020205344950017398,0.00043009764754221624,0.00016793813401479255,0.0005350855649442866
6.560000000000031,0.0013479617123761515,0.00020382343945285486,0.00043438698370437044,0.00016941677457375033,0.0005403345146451758
6.550000000000031,0.0013608253060484296,0.00020560693412371737,0.0004387059561601912,0.00017089563572469222,0.0005456167800398288
6.540000000000031,0.0013737671832797184,0.0002074043779821265,0.0004430545172329798,0.00017237534993482095,0.0005509329381297913
6.530000000000031,0.0013867898537173753,0.00020921630961835222,0.0004474328870885244,0.00017385669911580456,0.0005562839578946942
6.5200000000000315,0.0013998967103740893,0.0002110433584239058,0.00045184154747409386,0.0001753406139787608,0.0005616711904973289
6.510000000000032,0.0014130919984514235,0.0002128862402506774,0.00045628123131063634,0.00017682817266100991,0.0005670963542291
6.500000000000032,0.0014263807736523697,0.00021474575204660077,0.00046075290894310463,0.00017832059789008335,0.000572561514772581
6.490000000000032,0.0014397688508111877,0.0002166227654725866,0.00046525777195996856,0.00017981925192022167,0.0005780690614584109
6.480000000000032,0.001453262743840578,0.00021851821952021633,0.00046979721554621135,0.00018132562851070705,0.0005836216802634433
6.470000000000033,0.0014668695981239434,0.00022043311217087079,0.0004743728203200149,0.00018284134131072753,0.0005892223243223302
